Type :,DIL805
Test :,_Henrique-sp3-aq10Cs-resfr100Cs_01.01.07_


;Time;Temperature;Change in Length;Nominal Temperature
 1;0.00000000;23.99131203;0.00000000;0.00000000
 2;0.17072199;24.04318428;-0.19673702;1.69525003
 3;0.34019801;23.89706230;-0.18362123;3.39000988
 4;0.51087099;23.99684334;-0.20460650;5.09689999
 5;0.68036199;23.96261215;-0.20198333;6.79152012
 6;0.85100001;23.99078941;-0.19673702;8.49807930
 7;1.02052402;23.98525810;-0.16001278;10.19332981
 8;1.19118500;24.04529953;-0.21509913;11.89990997
 9;1.36060500;24.03660774;-0.16001278;13.59416962
 10;1.53016698;23.84018517;-0.17837489;15.28977013
 11;1.70088005;23.90917015;-0.17312860;16.99669075
 12;1.87029600;23.98682594;-0.16525912;18.69109917
 13;2.04091191;24.11426544;-0.16525912;20.39727974
 14;2.21032000;24.00185204;-0.18886754;22.09132957
 15;2.38090301;23.87994766;-0.23083809;23.79722214
 16;2.55039310;24.61040497;-0.17312860;25.49190140
 17;2.72108006;26.33268547;-0.00524634;27.19876099
 18;2.89068294;28.89914894;0.22296858;28.89492989
 19;3.06019211;30.77349472;0.45905295;30.58988953
 20;3.23081398;32.44577026;0.62431204;32.29626083
 21;3.40032411;33.95506668;0.82367218;33.99137878
 22;3.57095003;35.71437454;1.02303231;35.69757843
 23;3.74033594;37.36874390;1.22239244;37.39141083
 24;3.91089892;39.13096237;1.42175257;39.09709167
 25;4.08030701;40.89287186;1.61062014;40.79114914
 26;4.25103998;42.58961868;1.80998015;42.49836731
 27;4.42045879;44.18435287;1.99097824;44.19253922
 28;4.59113312;45.79528809;2.20083094;45.89945984
 29;4.76071692;47.68546677;2.41330695;47.59524918
 30;4.93021822;49.30260849;2.59692812;49.29016113
 31;5.10090590;51.11711121;2.80678082;50.99712753
 32;5.27038622;52.68831253;2.96941686;52.69206238
 33;5.44101286;54.36757660;3.19763160;54.39817047
 34;5.61051083;56.13626862;3.40748429;56.09323883
 35;5.78001308;57.76236725;3.62520671;57.78820801
 36;5.95079613;59.46063232;3.82981348;59.49615097
 37;6.12024212;61.19766998;4.00818825;61.19049835
 38;6.29097319;62.93001556;4.21804094;62.89778137
 39;6.46049500;64.59040070;4.40166235;64.59300232
 40;6.63119411;66.27363586;4.60364532;66.29985809
 41;6.80067205;68.00470734;4.81087542;67.99485016
 42;6.97020292;69.67727661;5.00236607;69.69007111
 43;7.14095211;71.34932709;5.20172596;71.39749146
 44;7.31031704;73.04530334;5.43518734;73.09127808
 45;7.48092318;74.80241394;5.62143135;74.79721069
 46;7.65042210;76.56964874;5.83653069;76.49234772
 47;7.82116890;78.16885376;6.04638338;78.19985962
 48;7.99069500;80.01457977;6.27722168;79.89488983
 49;8.16024780;81.55606842;6.44510365;81.59051514
 50;8.33085155;83.29113007;6.64708710;83.29663086
 51;8.50044346;84.96295929;6.85431671;84.99244690
 52;8.67113495;86.77597046;7.08515453;86.69944000
 53;8.84053230;88.41641235;7.28713799;88.39344025
 54;9.01112938;90.12978363;7.50223684;90.09937286
 55;9.18065453;91.82273865;7.69897413;91.79457855
 56;9.35013771;93.46996307;7.91144991;93.48939514
 57;9.52081013;95.20907593;8.11868000;95.19606018
 58;9.69031620;96.84072876;8.32853317;96.89126587
 59;9.86103821;98.58568573;8.54625511;98.59847260
 60;10.03042603;100.30241394;8.75348473;100.29232788
 61;10.20003033;101.93511200;8.95546818;101.98836517
 62;10.37074661;103.76287079;9.14695930;103.69560242
 63;10.54039669;105.41007233;9.33844948;105.39191437
 64;10.71115208;107.10356140;9.54830265;107.09937286
 65;10.88064766;108.74414063;9.75815487;108.79454803
 66;11.05012894;110.46736145;9.96013832;110.48927307
 67;11.22085190;112.30451202;10.20146942;112.19651031
 68;11.39046669;114.05184174;10.41132164;113.89273071
 69;11.56002712;115.54505157;10.65789890;115.58829498
 70;11.73075485;117.29904175;10.84152031;117.29546356
 71;11.90036201;119.08807373;11.04088020;118.99173737
 72;12.07108784;120.75099182;11.26122570;120.69886780
 73;12.24062061;122.44734192;11.48944092;122.39424896
 74;12.41017342;124.07003784;11.69142342;124.08976746
 75;12.58085728;125.69502258;11.87242222;125.79664612
 76;12.75046539;127.54455566;12.10063648;127.49282074
 77;12.92113590;129.21192932;12.32885170;129.19927979
 78;13.09057713;130.94667053;12.55444336;130.89390564
 79;13.26004410;132.59428406;12.79577446;132.58836365
 80;13.43068123;134.29742432;13.00038052;134.29489136
 81;13.60017490;136.11856079;13.20761013;135.98991394
 82;13.77098560;137.59082031;13.45943356;137.69798279
 83;13.94042683;139.40093994;13.67453289;139.39230347
 84;14.11106968;141.11070251;13.87913895;141.09877014
 85;14.28063679;142.71900940;14.09948444;142.79446411
 86;14.45018959;144.48736572;14.31720638;144.48995972
 87;14.62082577;146.23780823;14.51132107;146.19633484
 88;14.79027843;147.84068298;14.76052094;147.89086914
 89;14.96104717;149.53895569;15.02546024;149.59854126
 90;15.13054562;151.29003906;15.26679039;151.29350281
 91;15.30001354;152.97714233;15.48451233;152.98806763
 92;15.47062111;154.67283630;15.70485878;154.69430542
 93;15.64010620;156.41375732;15.95668221;156.38925171
 94;15.81068611;158.21203613;16.19276619;158.09492493
 95;15.98015594;159.74313354;16.44196701;159.78959656
 96;16.15088081;161.50651550;16.65968895;161.49688721
 97;16.32033539;163.21035767;16.86954117;163.19136047
 98;16.49100494;164.84849548;17.10037994;164.89816284
 99;16.66042328;166.64091492;17.38105774;166.59237671
 100;16.83115578;168.33786011;17.59877968;168.29953003
 101;17.00066566;170.04600525;17.86371803;169.99468994
 102;17.17014313;171.70388794;18.06832504;171.68954468
 103;17.34091568;173.36572266;18.34900284;173.39714050
 104;17.51042557;175.03361511;18.56147957;175.09217834
 105;17.68113136;176.83151245;18.79231834;176.79933167
 106;17.85065269;178.48361206;19.04676437;178.49449158
 107;18.02010536;180.32994080;19.25137138;180.18908691
 108;18.19073105;182.01518250;19.51368713;181.89535522
 109;18.36016655;183.62850952;19.76551056;183.58979797
 110;18.53082466;185.34100342;20.00683975;185.29641724
 111;18.70022583;186.97189331;20.25604057;186.99028015
 112;18.87091827;188.62060547;20.53934097;188.69732666
 113;19.04050446;190.34587097;20.75181770;190.39308167
 114;19.21007538;192.06423950;20.98790169;192.08885193
 115;19.38076019;193.77166748;21.28431892;193.79550171
 116;19.55024910;195.55162048;21.50728798;195.49066162
 117;19.72098541;197.17190552;21.74861908;197.19799805
 118;19.89051628;199.00292969;22.00044250;198.89320374
 119;20.06113243;200.54463196;22.24177170;200.59938049
 120;20.23064995;202.29623413;22.50671196;202.29452515
 121;20.40013504;204.01493835;22.77952003;203.98939514
 122;20.57088661;205.65451050;22.95264816;205.69692993
 123;20.74041557;207.33413696;23.23070335;207.39221191
 124;20.91003036;209.12860107;23.48777390;209.08834839
 125;21.08069611;210.73924255;23.71861076;210.79510498
 126;21.25014305;212.41793823;24.01240540;212.48948669
 127;21.42086792;214.18119812;24.24324417;214.19677734
 128;21.59036064;215.88378906;24.49769020;215.89166260
 129;21.76102448;217.60603333;24.75213623;217.59844971
 130;21.93052673;219.30120850;25.00658226;219.29321289
 131;22.10004234;221.00378418;25.25316048;220.98860168
 132;22.27068710;222.75639343;25.48137474;222.69499207
 133;22.44023323;224.45523071;25.75418282;224.39048767
 134;22.61092567;226.20252991;25.98502159;226.09733582
 135;22.78036308;227.83052063;26.26045418;227.79176331
 136;22.95000458;229.49645996;26.50440788;229.48808289
 137;23.12078476;231.14926147;26.74573708;231.19583130
 138;23.29021835;232.87091064;27.03953171;232.89030457
 139;23.46093750;234.59980774;27.26250076;234.59747314
 140;23.63039780;236.35620117;27.55367088;236.29196167
 141;23.80116653;237.99508667;27.81861115;237.99987793
 142;23.97078323;239.72822571;28.02584076;239.69587708
 143;24.14037323;241.56010437;28.31176376;241.39169312
 144;24.31105995;243.09497070;28.54522514;243.09861755
 145;24.48051643;244.78179932;28.77606392;244.79324341
 146;24.65114975;246.40782166;29.09871292;246.49957275
 147;24.82070541;248.14924622;29.31118774;248.19517517
 148;24.99030304;249.97357178;29.61285210;249.89103699
 149;25.16116714;251.63159180;29.87254524;251.59973145
 150;25.33065605;253.29075623;30.13748360;253.29466248
 151;25.50023079;255.04895020;30.41029167;254.99041748
 152;25.67095184;256.65274048;30.65424538;256.69757080
 153;25.84043312;258.48040771;30.90606880;258.39263916
 154;26.01107788;260.12484741;31.13953018;260.09890747
 155;26.18056870;261.84085083;31.35987473;261.79376221
 156;26.35010910;263.48370361;31.65629196;263.48913574
 157;26.52080345;265.12106323;31.90549469;265.19610596
 158;26.69042015;266.88150024;32.18354797;266.89221191
 159;26.86108398;268.55728149;32.44324112;268.59881592
 160;27.03059006;270.29275513;32.67407990;270.29391479
 161;27.20004082;272.03482056;32.92852402;271.98858643
 162;27.37091446;273.65020752;33.23543549;273.69705200
 163;27.54048729;275.41836548;33.47676468;275.39294434
 164;27.71012878;277.08731079;33.74957657;277.08938599
 165;27.88087654;278.81829834;34.01189041;278.79690552
 166;28.05027771;280.48059082;34.27945328;280.49081421
 167;28.22092438;282.24026489;34.50766754;282.19729614
 168;28.39040756;283.82510376;34.75949097;283.89208984
 169;28.56113052;285.62603760;35.00868988;285.59939575
 170;28.73053169;287.29656982;35.30510712;287.29342651
 171;28.90000343;289.05477905;35.55955505;288.98809814
 172;29.07067680;290.70196533;35.84547806;290.69488525
 173;29.24020386;292.43521118;36.10517120;292.39019775
 174;29.41100883;294.06045532;36.39371872;294.09793091
 175;29.58046913;295.85250854;36.64292145;295.79272461
 176;29.75115395;297.51443481;36.91835022;297.49966431
 177;29.92065239;299.25515747;37.18329239;299.19458008
 178;30.09002686;300.92794800;37.43511581;300.88827515
 179;30.26071739;302.58200073;37.68169022;302.59527588
 180;30.43016624;304.23944092;37.92302322;304.28973389
 181;30.60078049;306.00439453;38.21157074;305.99600220
 182;30.77027130;307.71179199;38.50798798;307.69079590
 183;30.94081116;309.43475342;38.75456238;309.39627075
 184;31.11032486;311.14291382;39.00114059;311.09136963
 185;31.28108215;312.68838501;39.28706360;312.79888916
 186;31.45051384;314.51272583;39.53364182;314.49322510
 187;31.62014008;316.14379883;39.86153793;316.18954468
 188;31.79080009;317.94815063;40.10286713;317.89614868
 189;31.96032715;319.62399292;40.37042999;319.59133911
 190;32.13092804;321.33590698;40.63799286;321.29733276
 191;32.30047989;323.00500488;40.89768600;322.99291992
 192;32.47119522;324.69702148;41.17573929;324.69995117
 193;32.64072418;326.38241577;41.48527145;326.39538574
 194;32.81027603;328.06658936;41.71348953;328.09075928
 195;32.98092270;329.80267334;41.96531296;329.79693604
 196;33.15037537;331.42913818;42.27746582;331.49172974
 197;33.32116318;333.21588135;42.56076813;333.19989014
 198;33.49058914;334.88604736;42.81783676;334.89398193
 199;33.66013336;336.59649658;43.09589386;336.58938599
 200;33.83079910;338.27938843;43.33197784;338.29605103
 201;34.00025558;340.00396729;43.65200424;339.99072266
 202;34.17091751;341.81872559;43.89857864;341.69723511
 203;34.34056473;343.37939453;44.14253235;343.39361572
 204;34.51002502;345.08758545;44.44157410;345.08837891
 205;34.68069458;346.89425659;44.70126724;346.79504395
 206;34.85023117;348.60406494;44.93997574;348.49047852
 207;35.02094650;350.22369385;45.24688339;350.19738770
 208;35.19047546;351.90481567;45.52231598;351.89282227
 209;35.36001968;353.57888794;45.83184814;353.58822632
 210;35.53073883;355.33544922;46.05744171;355.29547119
 211;35.70027924;356.95706177;46.34074020;356.99084473
 212;35.87101364;358.69668579;46.63978195;358.69824219
 213;36.04057312;360.45822144;46.91259003;360.39382935
 214;36.21000290;362.11224365;47.19064713;362.08813477
 215;36.38076019;363.88125610;47.46345520;363.79577637
 216;36.55027771;365.55249023;47.68904495;365.49075317
 217;36.72101212;367.31417847;47.98808670;367.19812012
 218;36.89056396;368.88699341;48.27138901;368.89361572
 219;37.06008530;370.58511353;48.54419708;370.58895874
 220;37.23085022;372.24630737;48.83274460;372.29647827
 221;37.40034485;373.90249634;49.11866760;373.99157715
 222;37.57104111;375.72937012;49.36262131;375.69839478
 223;37.74051666;377.36160278;49.65116882;377.39312744
 224;37.91115952;379.07440186;49.91873169;379.09973145
 225;38.08065033;380.82461548;50.17842484;380.79449463
 226;38.25020218;382.51834106;50.53517532;382.49011230
 227;38.42083740;384.14184570;50.80273819;384.19647217
 228;38.59036636;385.99234009;51.06505203;385.89175415
 229;38.76107407;387.57772827;51.31949997;387.59881592
 230;38.93061066;389.28533936;51.58968353;389.29415894
 231;39.10002899;390.94058228;51.90970993;390.98831177
 232;39.27071762;392.85272217;52.19563293;392.69515991
 233;39.44015121;394.34158325;52.43434143;394.38964844
 234;39.61082077;396.14004517;52.70190430;396.09619141
 235;39.78034973;397.74877930;53.01668167;397.79156494
 236;39.95103836;399.54296875;53.28686905;399.49841309
 237;40.12047577;401.10971069;53.55967712;401.19277954
 238;40.29119873;402.89343262;53.86133957;402.89996338
 239;40.46070862;404.58407593;54.13677216;404.59515381
 240;40.63015747;406.29830933;54.40958023;406.28955078
 241;40.80079651;407.99420166;54.68763733;407.99603271
 242;40.97035599;409.73968506;54.97880554;409.69158936
 243;41.14105225;411.40603638;55.26997757;411.39862061
 244;41.31057739;413.14065552;55.56114960;413.09384155
 245;41.48004532;414.79415894;55.86281204;414.78851318
 246;41.65071869;416.45999146;56.11463547;416.49539185
 247;41.82019806;418.19848633;56.44515228;418.19006348
 248;41.99085999;419.95199585;56.71796036;419.89666748
 249;42.16025925;421.69525146;57.01700211;421.59057617
 250;42.33093262;423.27325439;57.28194046;423.29742432
 251;42.50051498;425.00320435;57.57311249;424.99325562
 252;42.67111588;426.67633057;57.88526917;426.69921875
 253;42.84062195;428.38912964;58.15283203;428.39431763
 254;43.01015472;430.08868408;58.44400024;430.08956909
 255;43.18085480;431.76144409;58.70893860;431.79650879
 256;43.35032654;433.48849487;59.00011063;433.49127197
 257;43.52099609;435.13778687;59.32013702;435.19818115
 258;43.69054413;436.93777466;59.60868454;436.89315796
 259;43.86116791;438.56756592;59.86575317;438.59982300
 260;44.03059769;440.26644897;60.16479492;440.29406738
 261;44.20002365;442.02645874;60.44809341;441.98837280
 262;44.37062836;443.66186523;60.74975967;443.69433594
 263;44.54016495;445.47128296;61.06191635;445.38967896
 264;44.71081161;447.04821777;61.34783936;447.09619141
 265;44.88024521;448.73812866;61.66261673;448.79055786
 266;45.05093765;450.50668335;61.96165848;450.49731445
 267;45.22041702;452.29248047;62.24496078;452.19223022
 268;45.39118576;453.96356201;62.50989914;453.89990234
 269;45.56061554;455.56701660;62.79582214;455.59417725
 270;45.73006439;457.32327271;63.11060333;457.28869629
 271;45.90066910;459.01773071;63.38603592;458.99475098
 272;46.07004547;460.71133423;63.67720413;460.68862915
 273;46.24073792;462.43823242;63.97362137;462.39550781
 274;46.41027069;464.12426758;64.28052521;464.09060669
 275;46.58102036;465.73742676;64.61104584;465.79815674
 276;46.75048828;467.50860596;64.89697266;467.49310303
 277;46.92009735;469.10995483;65.22224426;469.18899536
 278;47.09085083;470.91784668;65.48718262;470.89648438
 279;47.26034164;472.55270386;65.81245422;472.59130859
 280;47.43109512;474.27633667;66.08525848;474.29907227
 281;47.60063171;476.02252197;66.37905884;475.99438477
 282;47.77022552;477.67938232;66.66497803;477.69039917
 283;47.94089890;479.35739136;66.94828033;479.39709473
 284;48.11039734;481.02975464;67.29716492;481.09204102
 285;48.28101349;482.79190063;67.57259369;482.79818726
 286;48.45064163;484.41799927;67.85327148;484.49447632
 287;48.62008667;486.28079224;68.16280365;486.18890381
 288;48.79066849;487.92880249;68.44873047;487.89483643
 289;48.96010971;489.62976074;68.74514771;489.58911133
 290;49.13082504;491.27301025;69.04418945;491.29620361
 291;49.30027771;493.10708618;69.37995148;492.99087524
 292;49.47097015;494.63131714;69.72882843;494.69775391
 293;49.64047623;496.34106445;69.98065186;496.39276123
 294;49.81115341;498.13519287;70.29281616;498.09963989
 295;49.98069763;499.74984741;70.53151703;499.79504395
 296;50.15032578;501.47555542;70.85942078;501.49114990
 297;50.32098389;503.15057373;71.16893768;503.19793701
 298;50.49045181;504.88281250;71.48897552;504.89260864
 299;50.66003418;506.56231689;71.78538513;506.58831787
 300;50.83072662;508.27630615;72.11065674;508.29516602
 301;51.00029373;509.96881104;72.39657593;509.99099731
 302;51.17100143;511.70529175;72.72447968;511.69812012
 303;51.34054184;513.58251953;73.01302338;513.39343262
 304;51.51018143;515.04882813;73.33042145;515.08990479
 305;51.68088913;516.82385254;73.64520264;516.79699707
 306;51.85034943;518.54290771;73.95475006;518.49145508
 307;52.02100372;520.35278320;74.25115967;520.19812012
 308;52.19055939;521.93634033;74.58692169;521.89367676
 309;52.36119843;523.56103516;74.85186005;523.59997559
 310;52.53065109;525.30279541;75.17975616;525.29461670
 311;52.70019531;527.12145996;75.48404694;526.98999023
 312;52.87075424;528.62615967;75.76997375;528.69555664
 313;53.04013062;530.47705078;76.14508057;530.38934326
 314;53.21087265;532.06945801;76.42575073;532.09680176
 315;53.38042450;533.82849121;76.69856262;533.79223633
 316;53.55001450;535.50939941;77.03432465;535.48828125
 317;53.72071075;537.22662354;77.36485291;537.19519043
 318;53.89018631;538.86865234;77.69274139;538.89001465
 319;54.06094742;540.57904053;77.94981384;540.59765625
 320;54.23038864;542.28869629;78.24098206;542.29199219
 321;54.40100479;544.01721191;78.59773254;543.99792480
 322;54.57049179;545.78363037;78.92826080;545.69305420
 323;54.74000549;547.42932129;79.16432953;547.38793945
 324;54.91062927;549.10699463;79.52371216;549.09442139
 325;55.08003235;550.78808594;79.84373474;550.78839111
 326;55.25074005;552.52911377;80.17425537;552.49542236
 327;55.42026138;554.34020996;80.48640442;554.19073486
 328;55.59098816;555.92254639;80.80381012;555.89801025
 329;55.76041031;557.48034668;81.13957977;557.59216309
 330;55.93106079;559.25079346;81.43599701;559.29876709
 331;56.10062027;561.07629395;81.72978973;560.99426270
 332;56.27009964;562.74401855;82.07341766;562.68908691
 333;56.44083023;564.34259033;82.34622955;564.39636230
 334;56.61027527;566.04620361;82.71871948;566.09082031
 335;56.78104782;567.84515381;82.98365021;567.79846191
 336;56.95054245;569.53625488;83.32991028;569.49346924
 337;57.12002945;571.17382813;83.63157654;571.18841553
 338;57.29074860;572.84454346;83.99881744;572.89544678
 339;57.46023560;574.62823486;84.28473663;574.59039307
 340;57.63090897;576.21844482;84.61000824;576.29711914
 341;57.80030823;577.93975830;84.92217255;577.99114990
 342;57.97099686;579.70751953;85.23433685;579.69775391
 343;58.14039612;581.43402100;85.53862000;581.39208984
 344;58.31116867;583.17413330;85.89273834;583.09973145
 345;58.48067856;584.82128906;86.18916321;584.79486084
 346;58.65024185;586.50585938;86.50131226;586.49041748
 347;58.82100296;588.23974609;86.82134247;588.19799805
 348;58.99060440;589.84600830;87.16497803;589.89404297
 349;59.16014481;591.60656738;87.47712708;591.58947754
 350;59.33085632;593.33203125;87.79453278;593.29669189
 351;59.50048828;594.95989990;88.12242889;594.99273682
 352;59.67115402;596.77349854;88.47393036;596.69958496
 353;59.84069443;598.37896729;88.79133606;598.39501953
 354;60.01014328;599.99163818;89.13758850;600.08953857
 355;60.18081284;601.78472900;89.41828156;601.79632568
 356;60.35042191;603.46569824;89.76977539;603.49230957
 357;60.52111816;605.17907715;90.06880951;605.19915771
 358;60.69065475;606.88879395;90.35998535;606.89465332
 359;60.86007309;608.46887207;90.71673584;608.58880615
 360;61.03084183;610.27923584;91.00527954;610.29638672
 361;61.20037842;612.03540039;91.33580017;611.99188232
